Phase,,,
Ch1,,Ch2,
X,Y,X,Y
Hz,deg,Hz,deg
17.3611111111111,73.920280409276,17.3611111111111,77.2358457442402
20.8333333333333,58.4504336627145,20.8333333333333,60.8251396666936
24.3055555555556,44.7730952674041,24.3055555555556,46.9455778592158
27.7777777777778,32.8680203727719,27.7777777777778,34.8880840972129
31.25,22.0156843845695,31.25,24.0223189222073
34.7222222222222,11.8455246209364,34.7222222222222,13.8595245142491
38.1944444444444,2.57321054659994,38.1944444444444,4.35237000261681
41.6666666666667,-6.54522806020911,41.6666666666667,-4.80976755271253
45.1388888888889,-15.1555303238979,45.1388888888889,-13.320077662458
48.6111111111111,-23.8305015248031,48.6111111111111,-21.8272689437421
52.0833333333333,-31.7535252773949,52.0833333333333,-29.544086454028
55.5555555555556,-39.6643817103784,55.5555555555556,-37.3806654955662
59.0277777777778,-46.8009584468306,59.0277777777778,-44.5821868452868
62.5,-53.8167018159914,62.5,-51.3314715403341
65.9722222222222,-60.0511957020944,65.9722222222222,-57.4848540132219
69.4444444444444,-65.9465110474428,69.4444444444444,-63.1386316089147
72.9166666666667,-71.2559147552372,72.9166666666667,-68.3313627926845
76.3888888888889,-76.0945259162951,76.3888888888889,-72.9098914296385
79.8611111111111,-80.4274279666272,79.8611111111111,-77.0278043392065
83.3333333333333,-83.905907875289,83.3333333333333,-80.5136193671279
86.8055555555556,-87.0262619698435,86.8055555555556,-83.6274706249119
90.2777777777778,-89.6219143485304,90.2777777777778,-86.161979026966
93.75,-92.1146482493803,93.75,-88.4458985618479
97.2222222222222,-94.2102762834217,97.2222222222222,-90.2491266529041
100.694444444444,-95.8658815671277,100.694444444444,-91.7712746532767
104.166666666667,-96.9656671520631,104.166666666667,-92.8418508409484
107.638888888889,-97.6984440045666,107.638888888889,-93.5435199447743
111.111111111111,-98.1024698731699,111.111111111111,-93.7896425791338
114.583333333333,-97.9967662460528,114.583333333333,-93.7394382141067
118.055555555556,-97.7908701730274,118.055555555556,-93.6352800141398
121.527777777778,-96.3048491322097,121.527777777778,-92.5804564574401
125,-94.6026465489568,125,-91.3236659156957
128.472222222222,-94.3881166392509,128.472222222222,-90.7075628173924
131.944444444444,-94.4681416515362,131.944444444444,-90.174478396501
135.416666666667,-93.718231282367,135.416666666667,-89.0914253774396
138.888888888889,-92.0103370672974,138.888888888889,-87.5066001301069
142.361111111111,-90.0815016524346,142.361111111111,-85.6855447513945
145.833333333333,-88.2078562443002,145.833333333333,-83.8317681891901
149.305555555556,-86.3210329589511,149.305555555556,-81.8574314316209
152.777777777778,-84.2411349743668,152.777777777778,-79.595122965653
156.25,-81.733022189267,156.25,-76.8733631499414
159.722222222222,-79.1483441379119,159.722222222222,-74.1691895710413
163.194444444444,-76.3484541855579,163.194444444444,-71.9087042851902
166.666666666667,-74.1636577679103,166.666666666667,-69.3646309765992
170.138888888889,-71.9201503769154,170.138888888889,-66.8863619423125
173.611111111111,-69.1806188001802,173.611111111111,-64.7751888467164
177.083333333333,-66.3009528568384,177.083333333333,-61.9760649297087
180.555555555556,-63.4693328970946,180.555555555556,-59.7363456670452
184.027777777778,-60.7963411968385,184.027777777778,-57.0436266165019
187.5,-58.1443231786758,187.5,-54.7909463250935
190.972222222222,-56.1281911682529,190.972222222222,-52.7407436492683
194.444444444444,-54.3444866371532,194.444444444444,-50.9137904885141
197.916666666667,-52.036180507801,197.916666666667,-49.378569217879
201.388888888889,-50.1815808397125,201.388888888889,-47.6194941346195
204.861111111111,-47.9818964884256,204.861111111111,-45.9008422666291
208.333333333333,-45.9867923404858,208.333333333333,-44.5038594041243
211.805555555556,-44.1816287708649,211.805555555556,-43.1296788424694
215.277777777778,-43.4817736827188,215.277777777778,-41.5671653861744
218.75,-42.452937593086,218.75,-40.34454890915
222.222222222222,-41.549090956512,222.222222222222,-39.096653566769
225.694444444444,-40.0879657779803,225.694444444444,-37.8080332111478
229.166666666667,-39.0545727450966,229.166666666667,-36.6841923669589
232.638888888889,-37.7560912791327,232.638888888889,-35.8195703540674
236.111111111111,-36.7143066952746,236.111111111111,-34.8854326842727
239.583333333333,-35.8612356645115,239.583333333333,-34.1908601835638
243.055555555556,-34.8449746447958,243.055555555556,-33.4507799378935
246.527777777778,-34.1153076378678,246.527777777778,-32.6522778826276
250,-33.0694526702757,250,-31.845385616289
253.472222222222,-31.9645169499566,253.472222222222,-31.0783854756432
256.944444444444,-30.6944087899296,256.944444444444,-30.5156220089508
260.416666666667,-29.6165817928164,260.416666666667,-29.8396540456022
263.888888888889,-28.2757242497307,263.888888888889,-29.3170689811713
267.361111111111,-26.3230489900642,267.361111111111,-28.5011192199037
270.833333333333,-23.9272760457834,270.833333333333,-27.692895782395
274.305555555556,-21.8948411850308,274.305555555556,-27.0073507644669
277.777777777778,-21.9450597913931,277.777777777778,-26.678071133752
281.25,-22.7092996791621,281.25,-26.643410925082
284.722222222222,-22.8265701257029,284.722222222222,-26.5593999191723
288.194444444444,-22.0298593323403,288.194444444444,-26.1373292152921
291.666666666667,-20.5481995155159,291.666666666667,-25.582530700067
295.138888888889,-18.705884797113,295.138888888889,-24.9459982217489
298.611111111111,-18.489872387636,298.611111111111,-24.6156417172692
302.083333333333,-19.600948483527,302.083333333333,-24.541003975263
305.555555555556,-21.5161985691616,305.555555555556,-24.5824639347236
309.027777777778,-23.1002473068353,309.027777777778,-24.6023286087375
312.5,-24.1856364694675,312.5,-24.5945039202726
315.972222222222,-24.5623294232163,315.972222222222,-24.4212563588192
319.444444444444,-24.5429767328642,319.444444444444,-24.1453889459557
322.916666666667,-24.3242565639159,322.916666666667,-23.8381622379153
326.388888888889,-23.826992796416,326.388888888889,-23.4584323988145
329.861111111111,-23.186354448067,329.861111111111,-23.3206596129939
333.333333333333,-22.1798471806593,333.333333333333,-23.12548275045
336.805555555556,-20.7449784927155,336.805555555556,-23.2565627977703
340.277777777778,-18.9487570248656,340.277777777778,-23.73756955851
343.75,-17.1907047328832,343.75,-24.0564308542939
347.222222222222,-15.9551148807688,347.222222222222,-24.0433107962796
350.694444444444,-15.5164078448173,350.694444444444,-23.6277372480034
354.166666666667,-15.8138929351548,354.166666666667,-22.762587050036
357.638888888889,-15.7316236558723,357.638888888889,-21.8618347587245
361.111111111111,-15.3319323847634,361.111111111111,-20.4649332116672
364.583333333333,-13.8134833291523,364.583333333333,-19.0990944583923
368.055555555556,-11.4266350982598,368.055555555556,-17.7465816704194
371.527777777778,-8.17406852031777,371.527777777778,-15.9317161562947
375,-4.94833563791444,375,-13.4822690764512
378.472222222222,-0.697651516511954,378.472222222222,-9.89756439896342
381.944444444444,4.51440042455798,381.944444444444,-6.15643355702852
385.416666666667,8.77863608191934,385.416666666667,-3.16434491415237
388.888888888889,9.28355656701854,388.888888888889,-1.79903372067523
392.361111111111,6.00921571252091,392.361111111111,-2.42847331787169
395.833333333333,0.670122988778374,395.833333333333,-4.02050115301867
399.305555555556,-4.74296823293598,399.305555555556,-5.67840128632361
402.777777777778,-9.39667775287347,402.777777777778,-6.61936282936145
406.25,-12.9997807876903,406.25,-7.16132883467827
409.722222222222,-15.8110307946697,409.722222222222,-7.57585068843261
413.194444444444,-17.7388442310674,413.194444444444,-8.36458279911824
416.666666666667,-19.0185534453112,416.666666666667,-9.41380855546029
420.138888888889,-19.5876864479516,420.138888888889,-10.7544399362432
423.611111111111,-19.748761668194,423.611111111111,-11.8937743171174
427.083333333333,-19.4712055730428,427.083333333333,-12.9109507242576
430.555555555556,-18.9316885643489,430.555555555556,-13.3330933760702
434.027777777778,-18.0886690711165,434.027777777778,-13.399171283581
437.5,-17.3387204052604,437.5,-13.1693275450904
440.972222222222,-16.6290829774462,440.972222222222,-12.7643639845599
444.444444444444,-16.6282283722059,444.444444444444,-12.9516400489592
447.916666666667,-17.0065419046435,447.916666666667,-13.3269561878271
451.388888888889,-17.6285834394388,451.388888888889,-13.9822077090624
454.861111111111,-18.3177330878721,454.861111111111,-14.7877027384234
458.333333333333,-18.6925948330633,458.333333333333,-15.5633859730684
461.805555555556,-19.0904715529358,461.805555555556,-16.1809318832736
465.277777777778,-19.4138436578005,465.277777777778,-16.5963322331926
468.75,-19.61621862804,468.75,-17.021183491429
472.222222222222,-19.7404144333225,472.222222222222,-17.3495604184002
475.694444444444,-19.8309424940457,475.694444444444,-17.5041062283248
479.166666666667,-19.8763567223482,479.166666666667,-17.7515987456769
482.638888888889,-19.9483772805786,482.638888888889,-18.003116577596
486.111111111111,-19.9347376887452,486.111111111111,-18.0988087897257
489.583333333333,-19.9765352095174,489.583333333333,-18.1940470431018
493.055555555556,-19.9459574439226,493.055555555556,-18.3586660897128
496.527777777778,-20.0168720468439,496.527777777778,-18.413529705202
500,-20.016364215819,500,-18.5208723083583
503.472222222222,-19.9412617498907,503.472222222222,-18.4988125883725
506.944444444444,-19.9507101228143,506.944444444444,-18.5879257484146
510.416666666667,-19.9176927580992,510.416666666667,-18.570785917961
513.888888888889,-19.9357187908472,513.888888888889,-18.6356292302872
517.361111111111,-19.8852896621994,517.361111111111,-18.5834041256542
520.833333333333,-19.8901177286,520.833333333333,-18.6643583021009
524.305555555556,-19.8124696239287,524.305555555556,-18.6404006914668
527.777777777778,-19.8886926214014,527.777777777778,-18.6768205531841
531.25,-19.8313498422764,531.25,-18.634302770506
534.722222222222,-19.8429111938638,534.722222222222,-18.6295724521006
538.194444444444,-19.8349323254488,538.194444444444,-18.569775923039
541.666666666667,-19.8084338521222,541.666666666667,-18.5023233997693
545.138888888889,-19.8541185541046,545.138888888889,-18.4455350663488
548.611111111111,-19.8629206849131,548.611111111111,-18.4643440602401
552.083333333333,-19.9140013557604,552.083333333333,-18.4535418640378
555.555555555556,-19.8900738475047,555.555555555556,-18.3640794516532
559.027777777778,-19.9372238591839,559.027777777778,-18.3656911733734
562.5,-19.9763477675469,562.5,-18.2719453819875
565.972222222222,-20.0180467514166,565.972222222222,-18.2621116375298
569.444444444444,-20.0170236887582,569.444444444444,-18.1709347267111
572.916666666667,-20.0994649661028,572.916666666667,-18.0718787181011
576.388888888889,-20.024179007743,576.388888888889,-18.0041870603926
579.861111111111,-20.0367072201504,579.861111111111,-17.9471125309174
583.333333333333,-19.8914899497721,583.333333333333,-17.8873120943356
586.805555555556,-19.8743429299256,586.805555555556,-17.7635490263568
590.277777777778,-19.6251577284239,590.277777777778,-17.6040521023047
593.75,-19.4736377027614,593.75,-17.5258640181989
597.222222222222,-19.2066835576101,597.222222222222,-17.2975934510331
600.694444444444,-19.0384982550272,600.694444444444,-17.1476748769537
604.166666666667,-18.7807727858405,604.166666666667,-16.905935485621
607.638888888889,-18.6587788955965,607.638888888889,-16.6526920418831
611.111111111111,-18.3892305024228,611.111111111111,-16.4439771223255
614.583333333333,-18.2378665576508,614.583333333333,-16.3515582434735
618.055555555556,-17.8735619226893,618.055555555556,-16.3620524882424
621.527777777778,-17.5560454920891,621.527777777778,-16.367696676576
625,-17.322112803307,625,-16.3309217644347
628.472222222222,-17.0262803995435,628.472222222222,-16.2747022063506
631.944444444444,-16.7604724476039,631.944444444444,-16.1250741391999
635.416666666667,-16.5307719716156,635.416666666667,-15.9818193943725
638.888888888889,-16.2765277790805,638.888888888889,-15.9444746011638
642.361111111111,-16.0276591270242,642.361111111111,-15.6837208235655
645.833333333333,-15.8586327678062,645.833333333333,-15.5596981855333
649.305555555556,-15.5658925013754,649.305555555556,-15.3858806067248
652.777777777778,-15.3587217656683,652.777777777778,-15.1452953544188
656.25,-15.1413402034903,656.25,-15.0052380256052
659.722222222222,-14.9165153633685,659.722222222222,-14.8161749138923
663.194444444444,-14.7359817996295,663.194444444444,-14.6344554642617
666.666666666667,-14.5656234785449,666.666666666667,-14.4457490387249
670.138888888889,-14.3119723808217,670.138888888889,-14.2988358606618
673.611111111111,-14.0762536982961,673.611111111111,-14.1570408471
677.083333333333,-13.9018746847275,677.083333333333,-13.9973054387396
680.555555555556,-13.6243237567976,680.555555555556,-13.816272099301
684.027777777778,-13.428829609059,684.027777777778,-13.6178103149202
687.5,-13.2161738517007,687.5,-13.3988833073389
690.972222222222,-12.9975237183328,690.972222222222,-13.2211663719854
694.444444444444,-12.7558872102603,694.444444444444,-13.1615185110615
697.916666666667,-12.5690507678314,697.916666666667,-12.8293963062418
701.388888888889,-12.2650132028472,701.388888888889,-12.7414514850657
704.861111111111,-11.9583450905791,704.861111111111,-12.5114961449832
708.333333333333,-11.7756349672936,708.333333333333,-12.2814698898636
711.805555555556,-11.5265926811754,711.805555555556,-12.1380906327267
715.277777777778,-11.2484496065165,715.277777777778,-11.8793768361612
718.75,-11.0483682830021,718.75,-11.7519516092327
722.222222222222,-10.7191687629925,722.222222222222,-11.4411386270953
725.694444444444,-10.5269122440065,725.694444444444,-11.2725582305162
729.166666666667,-10.3498091258551,729.166666666667,-11.0015361789035
732.638888888889,-10.2274535646292,732.638888888889,-10.7850455819616
736.111111111111,-10.0776375131919,736.111111111111,-10.675556969728
739.583333333333,-9.98245563285056,739.583333333333,-10.5313116982936
743.055555555556,-9.9363976025073,743.055555555556,-10.3950277704565
746.527777777778,-9.93120079139726,746.527777777778,-10.2718537099495
750,-9.8702436501377,750,-10.1390350952712
753.472222222222,-9.81161060099274,753.472222222222,-10.1645827540432
756.944444444444,-9.86228417151591,756.944444444444,-10.0917859949659
760.416666666667,-9.84207021620759,760.416666666667,-10.2147019374444
763.888888888889,-9.8708191112157,763.888888888889,-10.2975929704774
767.361111111111,-9.94633446929979,767.361111111111,-10.3554448773634
770.833333333333,-9.89926352534485,770.833333333333,-10.4882881627078
774.305555555556,-9.89569264222575,774.305555555556,-10.6171415162942
777.777777777778,-9.85661325903837,777.777777777778,-10.746040804498
781.25,-9.78103083910437,781.25,-10.8578743856315
784.722222222222,-9.66880361141017,784.722222222222,-10.8885719472739
788.194444444444,-9.58360836214635,788.194444444444,-11.0608208406624
791.666666666667,-9.40794039097125,791.666666666667,-11.1115671741714
795.138888888889,-9.34986717911261,795.138888888889,-11.2951015533851
798.611111111111,-9.26222485829987,798.611111111111,-11.3343541977518
802.083333333333,-9.21927713455787,802.083333333333,-11.4349560021892
805.555555555556,-9.10506502162107,805.555555555556,-11.446453812394
809.027777777778,-8.9561809551015,809.027777777778,-11.555344651197
812.5,-8.8855711283897,812.5,-11.674153126442
815.972222222222,-8.93066135416151,815.972222222222,-11.8776540243294
819.444444444444,-8.86994660094339,819.444444444444,-11.9822678804328
822.916666666667,-8.85034666401646,822.916666666667,-12.1576558473816
826.388888888889,-8.91626332824106,826.388888888889,-12.2707289367528
829.861111111111,-8.9296717213264,829.861111111111,-12.4119454171025
833.333333333333,-9.00900993665169,833.333333333333,-12.5702322604388
836.805555555556,-9.0165314596681,836.805555555556,-12.6306270295568
840.277777777778,-9.01615627463102,840.277777777778,-12.755334393323
843.75,-9.01414613961558,843.75,-12.8156545278833
847.222222222222,-9.0432335828724,847.222222222222,-12.8595572630257
850.694444444444,-9.01304983089699,850.694444444444,-12.913254134097
854.166666666667,-8.94292150412267,854.166666666667,-12.907441408874
857.638888888889,-8.91981289374786,857.638888888889,-12.8179900309192
861.111111111111,-8.85319291045852,861.111111111111,-12.8501774242255
864.583333333333,-8.75096195328328,864.583333333333,-12.825234370707
868.055555555556,-8.67308612558688,868.055555555556,-12.695727194864
871.527777777778,-8.57856871553543,871.527777777778,-12.6033122119853
875,-8.42501137575323,875,-12.4335092474332
878.472222222222,-8.26794117530235,878.472222222222,-12.3814789570201
881.944444444444,-8.0443892416952,881.944444444444,-12.1702564292933
885.416666666667,-7.94125793435268,885.416666666667,-12.0625945207846
888.888888888889,-7.62693913497088,888.888888888889,-11.9178188855639
892.361111111111,-7.48187414728224,892.361111111111,-11.7894780354873
895.833333333333,-7.18634235430602,895.833333333333,-11.5493937722587
899.305555555556,-7.03208149451143,899.305555555556,-11.4088481297188
902.777777777778,-6.74590570903902,902.777777777778,-11.2851774013948
906.25,-6.54176647624811,906.25,-10.9933126509374
909.722222222222,-6.28642173884435,909.722222222222,-10.8781243880156
913.194444444444,-6.15634220284147,913.194444444444,-10.6524871053179
916.666666666667,-5.96252837808194,916.666666666667,-10.5179312645861
920.138888888889,-5.78928985528418,920.138888888889,-10.2657226468539
923.611111111111,-5.68262207120617,923.611111111111,-10.1012013130034
927.083333333333,-5.58026141959351,927.083333333333,-9.88097333172081
930.555555555556,-5.49895382885191,930.555555555556,-9.68707085725484
934.027777777778,-5.4719227016023,934.027777777778,-9.48023067325622
937.5,-5.42846781223517,937.5,-9.25663603951583
940.972222222222,-5.37931456431895,940.972222222222,-9.13752903703809
944.444444444444,-5.40822325200733,944.444444444444,-8.91464508190833
947.916666666667,-5.35982099577063,947.916666666667,-8.77517270006913
951.388888888889,-5.35564022147526,951.388888888889,-8.53409121774044
954.861111111111,-5.371685805987,954.861111111111,-8.36642517951333
958.333333333333,-5.3198232868082,958.333333333333,-8.18236162196897
961.805555555556,-5.32584266665464,961.805555555556,-8.01987916393148
965.277777777778,-5.3196682626635,965.277777777778,-7.92149085450302
968.75,-5.41049495189381,968.75,-7.75564768683165
972.222222222222,-5.3136254460112,972.222222222222,-7.65902289807093
975.694444444444,-5.33827141564041,975.694444444444,-7.56726709220834
979.166666666667,-5.29792443673253,979.166666666667,-7.56146934429847
982.638888888889,-5.24522866082694,982.638888888889,-7.52873741382615
986.111111111111,-5.20503459176351,986.111111111111,-7.56011297152529
989.583333333333,-5.06018668557721,989.583333333333,-7.54804021193411
993.055555555556,-4.92675781626764,993.055555555556,-7.59839154589693
996.527777777778,-4.76144958600682,996.527777777778,-7.61088080298822
1000,-4.55855717070233,1000,-7.62708624642696
1003.47222222222,-4.36452419543824,1003.47222222222,-7.64480460863251
1006.94444444444,-4.2519296091879,1006.94444444444,-7.60793300355832
1010.41666666667,-4.05525387871995,1010.41666666667,-7.62634640000334
1013.88888888889,-3.81933397301094,1013.88888888889,-7.60583068965704
1017.36111111111,-3.64626651576197,1017.36111111111,-7.64796482898927
1020.83333333333,-3.4753244268538,1020.83333333333,-7.58086304894258
1024.30555555556,-3.3461822956059,1024.30555555556,-7.57419097974702
1027.77777777778,-3.23614124554115,1027.77777777778,-7.47008118369749
1031.25,-3.03474875245877,1031.25,-7.32061643481958
1034.72222222222,-2.77881169660421,1034.72222222222,-7.25775917296994
1038.19444444444,-2.66784429721653,1038.19444444444,-7.04288963763662
1041.66666666667,-2.59107225452189,1041.66666666667,-6.92122957642889
